Wavenumbers,Absorbance,Absorbance,Absorbance,Absorbance,Absorbance,Absorbance,Absorbance,Absorbance,Absorbance,Absorbance,Absorbance,Absorbance,Absorbance,Absorbance,Absorbance,Absorbance
cm-1,0,1,2,3,4,5,6,7,8,9,10,11,12,13,14,15
1100.19,-3.17E-10,-5.35E-10,-5.08E-10,-3.66E-06,-1.73E-06,3.74E-06,2.18E-06,-2.06E-07,1.36E-06,1.66E-06,4.13E-06,-1.87E-06,-1.48E-06,-3.99E-06,-3.39E-06,-3.86E-06
1100.673,-1.90E-07,-1.28E-05,1.38E-05,1.01E-05,1.99E-05,2.22E-05,-8.70E-07,-4.43E-05,-4.00E-05,-4.15E-05,-6.05E-05,-8.35E-05,-9.18E-05,-1.03E-04,-9.37E-05,-1.08E-04
1101.155,1.49E-07,-2.74E-05,3.35E-05,2.89E-05,5.25E-05,5.36E-05,1.02E-05,-6.68E-05,-6.22E-05,-6.50E-05,-9.75E-05,-1.47E-04,-1.50E-04,-1.70E-04,-1.54E-04,-1.81E-04
1101.637,5.91E-08,-4.02E-05,5.78E-05,5.29E-05,9.26E-05,8.97E-05,2.74E-05,-7.56E-05,-7.54E-05,-7.88E-05,-1.16E-04,-1.97E-04,-1.82E-04,-2.16E-04,-1.97E-04,-2.33E-04
1102.119,-2.38E-06,-4.96E-05,8.37E-05,8.07E-05,1.35E-04,1.23E-04,4.23E-05,-7.96E-05,-8.94E-05,-9.32E-05,-1.27E-04,-2.39E-04,-2.00E-04,-2.52E-04,-2.37E-04,-2.76E-04
1102.601,-8.89E-06,-5.63E-05,1.08E-04,1.11E-04,1.77E-04,1.50E-04,5.00E-05,-8.45E-05,-1.09E-04,-1.14E-04,-1.38E-04,-2.76E-04,-2.12E-04,-2.88E-04,-2.79E-04,-3.17E-04
1103.083,-2.02E-05,-6.24E-05,1.26E-04,1.41E-04,2.16E-04,1.72E-04,5.10E-05,-8.95E-05,-1.32E-04,-1.38E-04,-1.49E-04,-3.06E-04,-2.21E-04,-3.24E-04,-3.25E-04,-3.57E-04
1103.565,-3.50E-05,-7.06E-05,1.37E-04,1.70E-04,2.54E-04,1.93E-04,5.16E-05,-8.87E-05,-1.49E-04,-1.61E-04,-1.56E-04,-3.27E-04,-2.24E-04,-3.54E-04,-3.65E-04,-3.91E-04
1104.047,-5.14E-05,-8.21E-05,1.41E-04,1.98E-04,2.94E-04,2.18E-04,5.97E-05,-7.50E-05,-1.53E-04,-1.72E-04,-1.54E-04,-3.32E-04,-2.19E-04,-3.71E-04,-3.92E-04,-4.14E-04
1104.53,-6.61E-05,-9.65E-05,1.39E-04,2.27E-04,3.37E-04,2.52E-04,8.30E-05,-4.35E-05,-1.37E-04,-1.68E-04,-1.37E-04,-3.20E-04,-2.01E-04,-3.68E-04,-3.97E-04,-4.21E-04
1105.012,-7.61E-05,-1.12E-04,1.34E-04,2.59E-04,3.85E-04,2.96E-04,1.25E-04,5.85E-06,-1.00E-04,-1.47E-04,-1.09E-04,-2.95E-04,-1.72E-04,-3.45E-04,-3.82E-04,-4.14E-04
1105.494,-8.01E-05,-1.24E-04,1.31E-04,2.94E-04,4.39E-04,3.47E-04,1.85E-04,6.81E-05,-5.04E-05,-1.13E-04,-7.33E-05,-2.60E-04,-1.36E-04,-3.07E-04,-3.52E-04,-3.98E-04
1105.976,-7.82E-05,-1.32E-04,1.30E-04,3.35E-04,4.98E-04,4.02E-04,2.58E-04,1.36E-04,6.40E-06,-7.31E-05,-3.72E-05,-2.23E-04,-9.77E-05,-2.59E-04,-3.15E-04,-3.80E-04
1106.458,-7.21E-05,-1.34E-04,1.33E-04,3.81E-04,5.63E-04,4.61E-04,3.40E-04,2.04E-04,6.46E-05,-2.84E-05,-3.39E-06,-1.84E-04,-5.86E-05,-2.06E-04,-2.75E-04,-3.62E-04
1106.94,-6.47E-05,-1.30E-04,1.39E-04,4.30E-04,6.35E-04,5.23E-04,4.28E-04,2.71E-04,1.24E-04,2.19E-05,2.99E-05,-1.44E-04,-1.74E-05,-1.50E-04,-2.33E-04,-3.41E-04
1107.422,-5.90E-05,-1.22E-04,1.46E-04,4.80E-04,7.15E-04,5.91E-04,5.19E-04,3.37E-04,1.87E-04,8.19E-05,6.85E-05,-9.73E-05,3.00E-05,-8.80E-05,-1.84E-04,-3.14E-04
1107.904,-5.69E-05,-1.12E-04,1.52E-04,5.28E-04,8.05E-04,6.66E-04,6.12E-04,4.05E-04,2.58E-04,1.56E-04,1.18E-04,-4.04E-05,8.66E-05,-1.93E-05,-1.23E-04,-2.73E-04
1108.386,-5.96E-05,-1.02E-04,1.56E-04,5.72E-04,9.01E-04,7.47E-04,7.03E-04,4.75E-04,3.38E-04,2.42E-04,1.83E-04,2.58E-05,1.52E-04,5.45E-05,-5.07E-05,-2.18E-04
1108.869,-6.65E-05,-9.34E-05,1.56E-04,6.12E-04,9.98E-04,8.32E-04,7.89E-04,5.44E-04,4.23E-04,3.36E-04,2.58E-04,9.62E-05,2.19E-04,1.28E-04,2.78E-05,-1.53E-04
1109.351,-7.61E-05,-8.68E-05,1.53E-04,6.47E-04,0.00109,9.16E-04,8.65E-04,6.10E-04,5.06E-04,4.29E-04,3.39E-04,1.63E-04,2.82E-04,1.93E-04,1.03E-04,-8.59E-05
1109.833,-8.63E-05,-8.16E-05,1.48E-04,6.81E-04,0.00118,9.94E-04,9.28E-04,6.68E-04,5.83E-04,5.13E-04,4.19E-04,2.21E-04,3.35E-04,2.47E-04,1.67E-04,-2.34E-05
1110.315,-9.50E-05,-7.78E-05,1.41E-04,7.17E-04,0.00125,0.00107,9.80E-04,7.21E-04,6.50E-04,5.85E-04,4.94E-04,2.68E-04,3.76E-04,2.88E-04,2.15E-04,3.16E-05
1110.797,-1.01E-04,-7.50E-05,1.36E-04,7.58E-04,0.00132,0.00113,0.00103,7.72E-04,7.11E-04,6.49E-04,5.66E-04,3.09E-04,4.11E-04,3.25E-04,2.50E-04,8.28E-05
1111.279,-1.03E-04,-7.25E-05,1.32E-04,8.07E-04,0.00138,0.0012,0.00108,8.32E-04,7.73E-04,7.12E-04,6.38E-04,3.52E-04,4.48E-04,3.67E-04,2.83E-04,1.38E-04
1111.761,-1.03E-04,-6.99E-05,1.31E-04,8.64E-04,0.00144,0.00128,0.00114,9.06E-04,8.44E-04,7.83E-04,7.16E-04,4.05E-04,4.98E-04,4.24E-04,3.23E-04,2.04E-04
1112.243,-9.99E-05,-6.60E-05,1.33E-04,9.28E-04,0.00152,0.00136,0.00121,9.97E-04,9.25E-04,8.64E-04,8.00E-04,4.71E-04,5.63E-04,5.01E-04,3.77E-04,2.85E-04
1112.726,-9.52E-05,-5.94E-05,1.39E-04,9.96E-04,0.0016,0.00146,0.0013,0.0011,0.00102,9.56E-04,8.89E-04,5.50E-04,6.42E-04,5.93E-04,4.48E-04,3.78E-04
1113.208,-8.96E-05,-4.93E-05,1.46E-04,1.06E-03,0.00169,0.00155,0.0014,0.00121,0.00112,0.00105,9.76E-04,6.35E-04,7.30E-04,6.93E-04,5.29E-04,4.76E-04
1113.69,-8.31E-05,-3.47E-05,1.55E-04,1.13E-03,0.00178,0.00165,0.0015,0.00132,0.00121,0.00115,0.00106,7.21E-04,8.22E-04,7.92E-04,6.16E-04,5.73E-04
1114.172,-7.57E-05,-1.66E-05,1.63E-04,1.18E-03,0.00187,0.00175,0.0016,0.00142,0.0013,0.00124,0.00113,8.04E-04,9.14E-04,8.84E-04,7.04E-04,6.65E-04
1114.654,-6.72E-05,3.61E-06,1.70E-04,1.23E-03,0.00196,0.00186,0.00169,0.00152,0.00139,0.00132,0.00121,8.88E-04,0.00101,9.69E-04,7.92E-04,7.53E-04
1115.136,-5.81E-05,2.36E-05,1.76E-04,1.27E-03,0.00205,0.00196,0.00179,0.00161,0.00147,0.00141,0.00128,9.74E-04,0.0011,0.00105,8.82E-04,8.41E-04
1115.618,-4.91E-05,4.05E-05,1.78E-04,1.31E-03,0.00214,0.00206,0.00188,0.0017,0.00154,0.0015,0.00137,0.00106,0.00121,0.00113,9.76E-04,9.33E-04
1116.1,-4.23E-05,5.15E-05,1.78E-04,1.34E-03,0.00224,0.00217,0.00197,0.0018,0.00162,0.00158,0.00146,0.00116,0.00132,0.00122,0.00107,0.00103
1116.583,-3.89E-05,5.51E-05,1.74E-04,1.36E-03,0.00234,0.00227,0.00205,0.00189,0.00169,0.00167,0.00155,0.00125,0.00142,0.0013,0.00117,0.00113
1117.065,-4.02E-05,5.06E-05,1.68E-04,1.39E-03,0.00244,0.00236,0.00212,0.00198,0.00175,0.00175,0.00164,0.00133,0.00152,0.00137,0.00125,0.00122
1117.547,-4.55E-05,3.89E-05,1.61E-04,1.42E-03,0.00252,0.00243,0.00218,0.00207,0.0018,0.00181,0.00171,0.00141,0.0016,0.00144,0.00133,0.00131
1118.029,-5.28E-05,2.20E-05,1.55E-04,1.46E-03,0.0026,0.0025,0.00223,0.00214,0.00185,0.00186,0.00178,0.00147,0.00167,0.0015,0.00138,0.00138
1118.511,-5.81E-05,3.15E-06,1.51E-04,1.50E-03,0.00267,0.00256,0.00229,0.00221,0.00191,0.00191,0.00184,0.00154,0.00173,0.00156,0.00143,0.00144
1118.993,-5.72E-05,-1.38E-05,1.53E-04,1.56E-03,0.00274,0.00263,0.00236,0.00228,0.00198,0.00197,0.0019,0.00162,0.0018,0.00163,0.00149,0.00151
1119.475,-4.67E-05,-2.55E-05,1.63E-04,1.62E-03,0.00282,0.00272,0.00244,0.00236,0.00208,0.00204,0.00198,0.00172,0.00188,0.00171,0.00156,0.00158
1119.957,-2.56E-05,-2.91E-05,1.78E-04,1.68E-03,0.00291,0.00282,0.00255,0.00246,0.00219,0.00213,0.00208,0.00184,0.00197,0.00181,0.00164,0.00165
1120.439,4.18E-06,-2.39E-05,1.99E-04,1.75E-03,0.00301,0.00294,0.00267,0.00256,0.00232,0.00223,0.00219,0.00197,0.00208,0.00193,0.00174,0.00174
1120.922,3.79E-05,-1.06E-05,2.20E-04,1.82E-03,0.00313,0.00307,0.0028,0.00267,0.00245,0.00234,0.0023,0.0021,0.00218,0.00205,0.00185,0.00183
1121.404,6.86E-05,7.93E-06,2.37E-04,1.88E-03,0.00324,0.00319,0.00292,0.00278,0.00257,0.00245,0.00241,0.00221,0.00228,0.00216,0.00195,0.00191
1121.886,8.97E-05,2.79E-05,2.47E-04,1.93E-03,0.00335,0.00331,0.00304,0.00288,0.00268,0.00255,0.00251,0.00231,0.00236,0.00226,0.00205,0.00199
1122.368,9.64E-05,4.55E-05,2.47E-04,1.98E-03,0.00346,0.00341,0.00314,0.00297,0.00278,0.00265,0.00261,0.0024,0.00244,0.00235,0.00215,0.00207
1122.85,8.70E-05,5.79E-05,2.39E-04,2.03E-03,0.00356,0.00352,0.00324,0.00306,0.00287,0.00274,0.0027,0.00247,0.00252,0.00243,0.00224,0.00215
1123.332,6.37E-05,6.41E-05,2.24E-04,2.06E-03,0.00366,0.00362,0.00333,0.00315,0.00296,0.00284,0.0028,0.00255,0.0026,0.00251,0.00234,0.00223
1123.814,3.09E-05,6.44E-05,2.08E-04,2.10E-03,0.00375,0.00372,0.00342,0.00325,0.00306,0.00295,0.0029,0.00263,0.00269,0.00259,0.00244,0.00233
1124.296,-4.06E-06,6.12E-05,1.94E-04,2.14E-03,0.00385,0.00382,0.00352,0.00334,0.00317,0.00306,0.003,0.00272,0.00278,0.00267,0.00254,0.00244
1124.778,-3.50E-05,5.68E-05,1.87E-04,2.18E-03,0.00395,0.00391,0.00361,0.00343,0.00327,0.00317,0.0031,0.0028,0.00288,0.00275,0.00264,0.00254
1125.26,-5.68E-05,5.31E-05,1.87E-04,2.22E-03,4.05E-03,0.00401,0.00371,0.00352,0.00337,0.00327,0.00319,0.00289,0.00298,0.00283,0.00274,0.00265
1125.743,-6.70E-05,5.13E-05,1.95E-04,2.27E-03,4.15E-03,0.0041,0.0038,0.00361,0.00347,0.00336,0.00327,0.00297,0.00307,0.00292,0.00283,0.00274
1126.225,-6.56E-05,5.12E-05,2.09E-04,2.32E-03,4.24E-03,0.00418,0.0039,0.0037,0.00357,0.00345,0.00334,0.00305,0.00317,0.00301,0.00292,0.00284
1126.707,-5.50E-05,5.26E-05,2.27E-04,2.37E-03,4.34E-03,0.00428,0.004,0.00379,0.00367,0.00354,0.00342,0.00313,0.00327,0.00311,0.00302,0.00293
1127.189,-3.89E-05,5.43E-05,2.46E-04,2.43E-03,4.44E-03,0.00438,0.00412,0.0039,0.00377,0.00364,0.0035,0.00322,0.00338,0.00322,0.00312,0.00303
1127.671,-2.16E-05,5.55E-05,2.65E-04,2.48E-03,4.54E-03,0.00449,0.00424,0.00401,0.00387,0.00374,0.00359,0.00332,0.0035,0.00334,0.00323,0.00314
1128.153,-6.90E-06,5.55E-05,2.81E-04,2.54E-03,4.66E-03,0.0046,0.00436,0.00412,0.00397,0.00385,0.00368,0.00342,0.00361,0.00345,0.00335,0.00324
1128.635,2.44E-06,5.37E-05,2.93E-04,2.59E-03,4.77E-03,0.00472,0.00447,0.00423,0.00407,0.00395,0.00378,0.00352,0.00371,0.00355,0.00346,0.00333
1129.117,5.03E-06,4.89E-05,3.00E-04,2.64E-03,4.87E-03,0.00483,0.00458,0.00433,0.00415,0.00404,0.00387,0.00361,0.0038,0.00364,0.00355,0.00341
1129.6,7.03E-07,4.00E-05,3.02E-04,2.68E-03,4.97E-03,0.00493,0.00467,0.00441,0.00423,0.00412,0.00395,0.00368,0.00387,0.00371,0.00363,0.00348
1130.082,-8.98E-06,2.59E-05,2.98E-04,2.73E-03,5.06E-03,0.00501,0.00476,0.00449,0.00429,0.00419,0.00402,0.00375,0.00393,0.00376,0.00371,0.00354
1130.564,-2.16E-05,6.61E-06,2.90E-04,2.77E-03,5.14E-03,0.00509,0.00484,0.00456,0.00436,0.00426,0.00409,0.00381,0.00398,0.00383,0.00379,0.00361
1131.046,-3.45E-05,-1.70E-05,2.78E-04,2.81E-03,5.21E-03,0.00517,0.00492,0.00464,0.00443,0.00434,0.00417,0.00388,0.00405,0.0039,0.00387,0.00368
1131.528,-4.50E-05,-4.29E-05,2.65E-04,2.85E-03,5.28E-03,0.00525,0.00501,0.00473,0.00451,0.00442,0.00424,0.00397,0.00413,0.004,0.00396,0.00376
1132.01,-5.11E-05,-6.78E-05,2.50E-04,2.89E-03,5.35E-03,0.00533,0.0051,0.00482,0.0046,0.0045,0.00433,0.00406,0.00422,0.0041,0.00406,0.00384
1132.492,-5.20E-05,-8.87E-05,2.36E-04,2.94E-03,5.43E-03,0.00541,0.00518,0.00491,0.00469,0.00458,0.00441,0.00417,0.00431,0.00421,0.00415,0.00392
1132.974,-4.86E-05,-1.04E-04,2.24E-04,2.97E-03,5.50E-03,0.00549,0.00526,0.005,0.00478,0.00467,0.00448,0.00426,0.0044,0.0043,0.00423,0.00399
1133.457,-4.24E-05,-1.12E-04,2.14E-04,3.01E-03,5.57E-03,0.00557,0.00533,0.00508,0.00486,0.00474,0.00455,0.00436,0.00448,0.00438,0.0043,0.00405
1133.939,-3.61E-05,-1.15E-04,2.07E-04,3.05E-03,5.65E-03,0.00564,0.00539,0.00515,0.00494,0.00481,0.00462,0.00444,0.00455,0.00444,0.00436,0.0041
1134.421,-3.23E-05,-1.16E-04,2.03E-04,3.09E-03,5.72E-03,0.00572,0.00545,0.00522,0.00501,0.00488,0.00469,0.00453,0.00461,0.00449,0.00442,0.00416
1134.903,-3.30E-05,-1.16E-04,2.02E-04,3.12E-03,5.79E-03,0.00579,0.00551,0.00529,0.00509,0.00495,0.00477,0.00461,0.00468,0.00453,0.00448,0.00423
1135.385,-3.94E-05,-1.17E-04,2.02E-04,3.16E-03,5.87E-03,0.00586,0.00559,0.00536,0.00518,0.00502,0.00485,0.00469,0.00476,0.00457,0.00454,0.0043
1135.867,-5.06E-05,-1.19E-04,2.00E-04,3.21E-03,5.94E-03,0.00594,0.00566,0.00543,0.00525,0.00509,0.00493,0.00476,0.00483,0.00462,0.0046,0.00439
1136.349,-6.49E-05,-1.21E-04,1.96E-04,3.25E-03,6.00E-03,0.00601,0.00574,0.00549,0.00532,0.00516,0.00501,0.00483,0.0049,0.00466,0.00467,0.00447
1136.831,-7.94E-05,-1.21E-04,1.87E-04,3.29E-03,6.06E-03,0.00607,0.00581,0.00554,0.00538,0.00521,0.00508,0.00488,0.00495,0.0047,0.00472,0.00454
1137.313,-9.08E-05,-1.19E-04,1.74E-04,3.33E-03,6.12E-03,0.00612,0.00588,0.00559,0.00542,0.00526,0.00513,0.00492,0.005,0.00474,0.00476,0.0046
1137.796,-9.66E-05,-1.14E-04,1.57E-04,3.36E-03,6.17E-03,0.00618,0.00594,0.00563,0.00546,0.0053,0.00518,0.00496,0.00503,0.00478,0.0048,0.00465
1138.278,-9.61E-05,-1.07E-04,1.40E-04,3.40E-03,6.21E-03,0.00623,0.006,0.00566,0.00549,0.00535,0.00523,0.005,0.00507,0.00483,0.00484,0.00469
1138.76,-9.02E-05,-1.01E-04,1.24E-04,3.43E-03,6.26E-03,0.00629,0.00607,0.0057,0.00553,0.0054,0.00529,0.00504,0.0051,0.00488,0.00487,0.00474
1139.242,-8.17E-05,-9.83E-05,1.11E-04,3.45E-03,6.30E-03,0.00635,0.00614,0.00574,0.00557,0.00545,0.00535,0.00509,0.00514,0.00494,0.00491,0.00478
1139.724,-7.43E-05,-1.01E-04,1.02E-04,3.48E-03,6.35E-03,6.41E-03,0.0062,0.00579,0.00561,0.00551,0.00541,0.00515,0.00518,0.005,0.00495,0.00483
1140.206,-7.16E-05,-1.09E-04,9.59E-05,3.50E-03,6.40E-03,6.47E-03,0.00626,0.00583,0.00566,0.00555,0.00547,0.0052,0.00521,0.00505,0.00499,0.00487
1140.688,-7.57E-05,-1.23E-04,9.15E-05,3.52E-03,6.44E-03,6.52E-03,0.00631,0.00588,0.0057,0.0056,0.00551,0.00525,0.00524,0.0051,0.00502,0.00491
1141.17,-8.64E-05,-1.39E-04,8.78E-05,3.54E-03,6.49E-03,6.56E-03,0.00635,0.00593,0.00573,0.00563,0.00555,0.00529,0.00527,0.00514,0.00504,0.00494
1141.653,-1.01E-04,-1.56E-04,8.44E-05,3.56E-03,6.53E-03,6.61E-03,0.00638,0.00598,0.00577,0.00567,0.00558,0.00533,0.00529,0.00518,0.00506,0.00497
1142.135,-1.16E-04,-1.71E-04,8.30E-05,3.59E-03,6.59E-03,6.65E-03,0.00641,0.00604,0.00582,0.00571,0.00563,0.00538,0.00533,0.00522,0.0051,0.005
1142.617,-1.28E-04,-1.81E-04,8.49E-05,3.62E-03,6.64E-03,6.71E-03,0.00646,0.00611,0.00588,0.00576,0.00568,0.00543,0.00538,0.00528,0.00515,0.00505
1143.099,-1.33E-04,-1.87E-04,9.16E-05,3.66E-03,6.71E-03,6.77E-03,0.00651,0.00619,0.00595,0.00582,0.00576,0.0055,0.00544,0.00535,0.00522,0.0051
1143.581,-1.30E-04,-1.86E-04,1.04E-04,3.71E-03,6.78E-03,6.85E-03,0.00658,0.00627,0.00603,0.00589,0.00584,0.00556,0.00551,0.00542,0.0053,0.00517
1144.063,-1.21E-04,-1.81E-04,1.19E-04,3.75E-03,6.85E-03,6.92E-03,0.00665,0.00636,0.0061,0.00596,0.00592,0.00563,0.00559,0.00548,0.00538,0.00523
1144.545,-1.09E-04,-1.70E-04,1.34E-04,3.79E-03,6.92E-03,6.98E-03,0.00672,0.00643,0.00617,0.00603,0.00599,0.00568,0.00565,0.00554,0.00544,0.00528
1145.027,-9.85E-05,-1.57E-04,1.47E-04,3.82E-03,6.98E-03,7.04E-03,0.00678,0.0065,0.00622,0.00608,0.00604,0.00572,0.00571,0.00559,0.00549,0.00532
1145.51,-9.17E-05,-1.42E-04,1.54E-04,3.85E-03,7.03E-03,7.08E-03,0.00683,0.00655,0.00626,0.00613,0.00607,0.00576,0.00575,0.00563,0.00553,0.00535
1145.992,-9.10E-05,-1.28E-04,1.54E-04,0.00387,7.07E-03,7.12E-03,0.00688,0.00659,0.0063,0.00618,0.00609,0.00579,0.0058,0.00566,0.00557,0.00538
1146.474,-9.62E-05,-1.15E-04,1.47E-04,0.00389,7.11E-03,7.16E-03,0.00693,0.00663,0.00634,0.00623,0.00611,0.00582,0.00585,0.00571,0.0056,0.00542
1146.956,-1.06E-04,-1.06E-04,1.37E-04,0.0039,7.14E-03,7.20E-03,0.00698,0.00668,0.00639,0.00628,0.00613,0.00586,0.00589,0.00576,0.00563,0.00546
1147.438,-1.19E-04,-1.02E-04,1.25E-04,0.00391,7.16E-03,7.24E-03,0.00703,0.00672,0.00643,0.00633,0.00616,0.0059,0.00594,0.00581,0.00568,0.00551
1147.92,-1.33E-04,-1.00E-04,1.13E-04,0.00392,7.18E-03,7.28E-03,0.00708,0.00676,0.00648,0.00638,0.00619,0.00594,0.00599,0.00586,0.00572,0.00556
1148.402,-1.46E-04,-1.02E-04,1.03E-04,0.00392,7.20E-03,7.33E-03,0.00713,0.0068,0.00653,0.00642,0.00623,0.00597,0.00603,0.00591,0.00576,0.0056
1148.884,-1.58E-04,-1.06E-04,9.50E-05,0.00392,7.22E-03,7.38E-03,0.00718,0.00684,0.00658,0.00647,0.00628,0.00601,0.00606,0.00595,0.0058,0.00565
1149.366,-1.67E-04,-1.10E-04,8.95E-05,0.00393,7.24E-03,7.43E-03,0.00723,0.00688,0.00664,0.00651,0.00633,0.00605,0.00611,0.00599,0.00584,0.00569
1149.849,-1.75E-04,-1.14E-04,8.65E-05,0.00394,7.28E-03,7.48E-03,0.00729,0.00692,0.0067,0.00657,0.00639,0.0061,0.00616,0.00603,0.00588,0.00573
1150.331,-1.81E-04,-1.18E-04,8.63E-05,0.00395,7.32E-03,7.53E-03,0.00736,0.00698,0.00677,0.00664,0.00646,0.00616,0.00623,0.00608,0.00593,0.00578
1150.813,-1.86E-04,-1.23E-04,8.89E-05,0.00397,0.00738,7.59E-03,0.00743,0.00705,0.00686,0.00672,0.00654,0.00623,0.0063,0.00613,0.00599,0.00584
1151.295,-1.89E-04,-1.31E-04,9.41E-05,0.004,0.00744,7.64E-03,0.00751,0.00713,0.00695,0.0068,0.00662,0.00631,0.00638,0.00619,0.00606,0.0059
1151.777,-1.92E-04,-1.42E-04,1.01E-04,0.00403,0.0075,7.69E-03,0.00758,0.00721,0.00703,0.00688,0.0067,0.00638,0.00645,0.00624,0.00612,0.00596
1152.259,-1.93E-04,-1.56E-04,1.09E-04,0.00406,0.00756,7.74E-03,0.00764,0.0073,0.0071,0.00696,0.00677,0.00645,0.00651,0.00629,0.00618,0.00602
1152.741,-1.93E-04,-1.73E-04,1.17E-04,0.00409,0.00761,7.78E-03,0.00769,0.00737,0.00716,0.00702,0.00683,0.00651,0.00656,0.00634,0.00624,0.00608
1153.223,-1.89E-04,-1.88E-04,1.25E-04,0.00412,0.00765,7.82E-03,0.00773,0.00745,0.00721,0.00708,0.0069,0.00656,0.00661,0.00638,0.0063,0.00613
1153.705,-1.82E-04,-2.02E-04,1.33E-04,0.00415,0.00769,7.87E-03,0.00777,0.00752,0.00727,0.00714,0.00697,0.00663,0.00666,0.00643,0.00636,0.00619
1154.188,-1.70E-04,-2.10E-04,1.40E-04,0.00418,0.00772,7.92E-03,0.00781,0.0076,0.00732,0.00721,0.00704,0.0067,0.00672,0.00649,0.00643,0.00627
1154.67,-1.55E-04,-2.14E-04,1.48E-04,0.0042,0.00775,7.98E-03,0.00787,0.00768,0.00739,0.00728,0.00713,0.00678,0.00679,0.00657,0.00652,0.00635
1155.152,-1.38E-04,-2.13E-04,1.56E-04,0.00423,0.00778,8.05E-03,0.00795,0.00776,0.00747,0.00735,0.00722,0.00688,0.00688,0.00665,0.00661,0.00643
1155.634,-1.23E-04,-2.11E-04,1.61E-04,0.00425,0.00781,0.00813,0.00803,0.00784,0.00755,0.00743,0.00731,0.00697,0.00697,0.00674,0.0067,0.00652
1156.116,-1.12E-04,-2.10E-04,1.61E-04,0.00427,0.00783,0.0082,8.12E-03,0.00792,0.00764,0.00751,0.00739,0.00706,0.00706,0.00683,0.00679,0.00661
1156.598,-1.07E-04,-2.12E-04,1.56E-04,0.00429,0.00786,0.00828,8.21E-03,0.00799,0.00772,0.00758,0.00746,0.00715,0.00715,0.00693,0.00687,0.00669
1157.08,-1.10E-04,-2.18E-04,1.44E-04,0.00431,0.0079,0.00835,8.30E-03,0.00806,0.00781,0.00766,0.00754,0.00723,0.00725,0.00702,0.00695,0.00678
1157.562,-1.19E-04,-2.30E-04,1.29E-04,0.00433,0.00794,0.00842,8.40E-03,0.00813,0.00789,0.00775,0.00763,0.00732,0.00735,0.00712,0.00704,0.00688
1158.044,-1.30E-04,-2.43E-04,1.12E-04,0.00435,0.00799,0.0085,8.50E-03,0.00821,0.00799,0.00786,0.00773,0.00742,0.00747,0.00723,0.00713,0.00699
1158.527,-1.42E-04,-2.56E-04,9.81E-05,0.00438,0.00805,0.00859,8.60E-03,0.0083,0.00809,0.00797,0.00785,0.00753,0.0076,0.00735,0.00724,0.00711
1159.009,-1.53E-04,-2.68E-04,8.91E-05,0.00441,0.00813,0.00867,8.71E-03,0.0084,0.0082,0.0081,0.00798,0.00765,0.00773,0.00747,0.00735,0.00724
1159.491,-1.61E-04,-2.76E-04,8.57E-05,0.00444,0.00821,0.00877,8.81E-03,0.00851,0.00831,0.00822,0.00811,0.00777,0.00787,0.00759,0.00748,0.00737
1159.973,-1.69E-04,-2.79E-04,8.63E-05,0.00447,0.00828,0.00886,8.92E-03,0.00862,0.00842,0.00835,0.00824,0.00789,0.008,0.00771,0.00761,0.0075
1160.455,-1.77E-04,-2.80E-04,8.80E-05,0.0045,0.00836,0.00896,9.02E-03,0.00875,0.00854,0.00847,0.00837,0.00801,0.00812,0.00782,0.00774,0.00763
1160.937,-1.86E-04,-2.78E-04,8.79E-05,0.00452,0.00843,0.00905,9.13E-03,0.00887,0.00865,0.00858,0.0085,0.00814,0.00825,0.00794,0.00788,0.00776
1161.419,-1.97E-04,-2.73E-04,8.46E-05,0.00454,0.00849,0.00915,9.25E-03,0.00901,0.00878,0.00871,0.00863,0.00827,0.00837,0.00807,0.00802,0.0079
1161.901,-2.08E-04,-2.68E-04,7.89E-05,0.00457,0.00855,0.00926,9.37E-03,0.00916,0.00892,0.00884,0.00878,0.00841,0.00851,0.0082,0.00817,0.00805
1162.384,-2.16E-04,-2.60E-04,7.35E-05,0.00459,0.00861,0.00937,9.50E-03,0.00933,0.00907,0.00899,0.00893,0.00856,0.00866,0.00835,0.00834,0.00821
1162.866,-2.19E-04,-2.52E-04,7.17E-05,0.00463,0.00868,0.00949,9.64E-03,0.00949,0.00923,0.00914,0.0091,0.00871,0.00881,0.00851,0.0085,0.00837
1163.348,-2.13E-04,-2.43E-04,7.65E-05,0.00466,0.00876,0.00962,9.78E-03,0.00966,0.0094,0.0093,0.00927,0.00887,0.00898,0.00868,0.00867,0.00853
1163.83,-1.99E-04,-2.35E-04,8.90E-05,0.0047,0.00884,0.00976,9.92E-03,0.00983,0.00957,0.00947,0.00944,0.00903,0.00914,0.00884,0.00884,0.00869
1164.312,-1.78E-04,-2.29E-04,1.09E-04,0.00475,0.00893,0.0099,1.01E-02,0.00999,0.00974,0.00964,0.00962,0.0092,0.00931,0.00901,0.00902,0.00885
